Wavelength,Intensity
197.31843431919879,19717.900390625
201.48616933759149,20010.099609375
205.65124956070576,20198.099609375
209.81367719610535,20379.69921875
213.973454448942,20341.5
218.13058352196094,20273.099609375
222.28506661551182,20352.19921875
226.43690592754865,20362.099609375
230.58610365362256,20460.900390625
234.73266198690726,20578.19921875
238.87658311818086,20853.099609375
243.01786923583677,21106
247.15652252589825,21446.69921875
251.29254517199661,21539.5
255.4259393554039,21833.5
259.55670725501113,22161.099609375
263.68485104734827,22330.69921875
267.81037290657514,22560.19921875
271.93327500449595,22682.69921875
276.05355951055753,22823.80078125
280.17122859184747,23033.69921875
284.28628441310866,23136.400390625
288.39872913673025,23294.30078125
292.5085649227567,23524.900390625
296.61579392889325,23772.80078125
300.72041831051138,23984
304.82244022064151,24237.400390625
308.92186180998033,24371.80078125
313.01868522690165,24520.30078125
317.112912617451,24702.5
321.20454612534922,24791.599609375
325.29358789200342,24741.19921875
329.38004005650328,24784.400390625
333.46390475562112,24842
337.54518412381913,24932.30078125
341.62388029326576,24868.099609375
345.69999539381024,24871.099609375
349.77353155300989,24875.30078125
353.84449089612281,24925.30078125
357.91287554611517,25068.599609375
361.97868762365761,25050.5
366.04192924714152,25169.099609375
370.10260253266097,25302.5
374.16070959404351,25289.80078125
378.21625254282844,25495
382.26923348827768,25649.599609375
386.31965453739213,25669.19921875
390.36751779489532,25627.69921875
394.41282536324434,25673.80078125
398.45557934263707,25725
402.49578183101039,25651.900390625
406.53343492404383,25532.599609375
410.56854071516318,25472.599609375
414.60110129554414,25348.400390625
418.6311187541196,25257.69921875
422.65859517756326,25340.69921875
426.68353265032783,25167.19921875
430.7059332546105,25158.5
434.72579907038016,25112.099609375
438.74313217537747,25022.19921875
442.75793464510753,24919.400390625
446.77020855284718,25118.80078125
450.77995596965593,25088.599609375
454.78717896437229,25194.80078125
458.79187960361378,25322.69921875
462.79405995178786,25407
466.79372207108645,25272
470.7908680215005,25343.400390625
474.78549986080543,25420.099609375
478.77761964458659,25507.30078125
482.76722942621382,25572
486.7543312568796,25663.5
490.73892718556635,25582.80078125
494.72101925907918,25611.599609375
498.70060952202584,25635.80078125
502.67770001683493,25628.599609375
506.65229278375409,25708
510.62438986084817,25712.80078125
514.593993284012,25646.099609375
518.56110508696111,25705.30078125
522.52572730124666,25862.19921875
526.48786195624962,25718.69921875
530.44751107919183,25928.599609375
534.40467669512873,25920.19921875
538.35936082695844,26099
542.3115654954272,26251.900390625
546.2612927191276,25998.80078125
550.2085445144985,25950.599609375
554.15332289584148,26014.30078125
558.09562987530626,26007.19921875
562.03546746290522,26061.099609375
565.97283766651162,26091
569.90774249186506,26046.599609375
573.84018394257328,25825
577.770164020114,25790.80078125
581.69768472383657,25791.099609375
585.6227480509715,25911
589.54535599662449,26071.900390625
593.46551055378586,26014.400390625
597.38321371333222,26057.69921875
601.29846746401927,25956.19921875
605.2112737925072,26093.900390625
609.12163468334074,26156.69921875
613.02955211896187,26100.69921875
616.93502807971345,26131.900390625
620.83806454383739,26024.5
624.73866348748743,26063
628.63682688471636,26018
632.5325567074924,25893.30078125
636.42585492569742,26061.599609375
640.31672350712506,25914.900390625
644.20516441748987,25984.69921875
648.0911796204291,25943.19921875
651.97477107750819,25844.900390625
655.85594074821165,25870.900390625
659.73469058995579,25919.599609375
663.61102255809237,25903.30078125
667.48493860591043,25737.30078125
671.356440684629,25846.30078125
675.22553074342068,25798.599609375
679.09221072938635,25820.30078125
682.95648258758592,25767.69921875
686.818348261022,25845.69921875
690.67780969065279,25771.400390625
694.53486881538629,25869
698.389527572097,25843.599609375
702.24178789560574,25944.80078125
706.091651718707,25866.19921875
709.9391209721598,26012.900390625
713.7841975846859,25910.5
717.62688348298252,25980
721.46718059172053,25946.400390625
725.30509083354082,25952.599609375
729.14061612907062,25849.900390625
732.97375839691813,26041.19921875
736.80451955367425,25971.099609375
740.63290151391448,25957.099609375
744.45890619020793,26040.19921875
748.28253549311376,25877.30078125
752.10379133118659,25936.599609375
755.922675610982,25842.900390625
759.73919023705275,25804.900390625
763.5533371119509,25865
767.36511813623838,25851.69921875
771.17453520849085,25771
774.98159022528671,25819.400390625
778.78628508121619,25752.30078125
782.58862166889776,25687.19921875
786.38860187895989,25679.400390625
790.18622760004837,25576.5
793.981500718839,25584.400390625
797.7744231200395,25514.19921875
801.56499668637844,25511.30078125
805.35322329861992,25650.5
809.1391048355581,25542.900390625
812.92264317403351,25469.69921875
816.70384018891673,25381.30078125
820.48269775312474,25467.099609375
824.25921773762093,25480
828.03340201141873,25453.599609375
831.80525244156706,25446.69921875
835.57477089318672,25290.400390625
839.34195922943945,25434.69921875
843.106819311557,25464.19921875
846.86935299882134,25323.5
850.629562148577,25425.400390625
854.38744861624036,25385.900390625
858.14301425529266,25361.599609375
861.89626091728678,25492
865.64719045184938,25356.099609375
869.39580470668079,25329.69921875
873.142105527555,25361.900390625
876.886094758338,25444.599609375
880.62777424096748,25392.19921875
884.36714581547494,25361.80078125
888.10421131997828,25402
891.83897259068181,25237.5
895.57143146188719,25311.400390625
899.30158976598977,25326.19921875
903.0294493334859,25289.599609375
906.755011992971,25204.80078125
910.47827957114714,25103.099609375
914.19925389280979,25050.599609375
917.91793678088288,24958.5
921.63433005637853,25155.69921875
925.34843553844075,24984
929.06025504432,24976.5
932.76979038938225,24880
936.47704338712538,24732.099609375
940.182015849161,24795.900390625
943.884709585227,24604.5
947.58512640318986,24796.30078125
951.28326810904946,24616.400390625
954.97913650693954,24644.900390625
958.67273339911662,24635.5
962.36406058599277,24703.900390625
966.05311986611014,24652.099609375
969.73991303615367,24422.599609375
973.42444189095477,24516.099609375
977.1067082234913,24560.19921875
980.78671382489847,24526.69921875
984.46446048444886,24545.099609375
988.13994998958515,24614.80078125
991.8131841258928,24559.099609375
995.484164677131,24619
999.152893425211,24606.30078125
1002.8193721502121,24572.400390625
1006.4836026303801,24452.69921875
1010.1455866421293,24504.099609375
1013.8053259600438,24513.400390625
1017.4628223568834,24441.30078125
1021.1180776035853,24490.400390625
1024.7710934692641,24596.400390625
1028.4218717212134,24385.900390625
1032.0704141249189,24326.400390625
1035.7167224440345,24268.099609375
1039.3607984404189,24323.30078125
1043.0026438741188,24370.400390625
1046.6422605033622,24287
1050.2796500845852,24278.599609375
1053.9148143724142,24170.5
1057.5477551196764,24137.80078125
1061.1784740774019,24106.599609375
1064.8069729948293,24102.80078125
1068.4332536194015,24111.599609375
1072.0573176967609,24168.599609375
1075.6791669707764,24045
1079.298803183523,24016.5
1082.9162280752917,23968.599609375
1086.5314433845961,23949
1090.14445084816,23834
1093.7552522009446,23778.69921875
1097.3638491761285,23805
1100.9702435051149,23669.30078125
1104.5744369175445,23840.099609375
1108.1764311412844,23741.599609375
1111.776227902441,23725.30078125
1115.3738289253561,23669.599609375
1118.9692359326018,23610.900390625
1122.562450645004,23501.19921875
1126.1534747816295,23518.900390625
1129.7423100597825,23542
1133.3289581950285,23616.599609375
1136.91342090117,23503.900390625
1140.4956998902726,23457.099609375
1144.0757968726484,23449.30078125
1147.653713556876,23330.80078125
1151.2294516497841,23103
1154.8030128564715,23329.5
1158.3743988802926,23140.19921875
1161.9436114228756,23149.900390625
1165.5106521841099,23096.5
1169.075522862162,22957.900390625
1172.6382251534669,22994.099609375
1176.1987607527353,22884.19921875
1179.7571313529588,22820.900390625
1183.3133386453992,22846.19921875
1186.867384319612,22814.099609375
1190.4192700634321,22736.5
1193.9689975629735,22856.400390625
1197.5165685026495,22926.19921875
1201.0619845651563,22848.80078125
1204.6052474314856,22757.69921875
1208.1463587809212,22673.400390625
1211.6853202910515,22654.80078125
1215.222133637757,22508.30078125
1218.7568004952191,22466.30078125
1222.2893225359276,22590.400390625
1225.819701430677,22549
1229.3479388485648,22553.80078125
1232.8740364570076,22423.19921875
1236.3979959217268,22293.69921875
1239.9198189067611,22236.900390625
1243.4395070744649,22193.599609375
1246.9570620855138,22142.19921875
1250.4724855989007,22065.099609375
1253.9857792719413,22033.599609375
1257.4969447602834,21989.5
1261.005983717896,21898
1264.5128977970817,21843.30078125
1268.0176886484642,21861.400390625
1271.5203579210138,21653.80078125
1275.0209072620328,21556.599609375
1278.5193383171609,21519.099609375
1282.0156527303734,21404.5
1285.5098521439977,21464
1289.0019381986949,21401.099609375
1292.4919125334818,21473.80078125
1295.9797767857162,21423.80078125
1299.4655325911135,21156
1302.9491815837391,21128.30078125
1306.4307253960087,21073.900390625
1309.9101656587009,21031.400390625
1313.3875040009498,20943.30078125
1316.862742050258,21046.19921875
1320.3358814324838,20955.5
1323.8069237718519,20855.30078125
1327.2758706909553,20844.69921875
1330.7427238107575,20656
1334.2074847505937,20712.099609375
1337.6701551281694,20578.30078125
1341.1307365595731,20534.599609375
1344.5892306592632,20509.599609375
1348.0456390400832,20564.30078125
1351.4999633132538,20593.599609375
1354.9522050883861,20519.19921875
1358.4023659734739,20374.900390625
1361.8504475748941,20340.900390625
1365.2964514974228,20171.30078125
1368.7403793442209,20224.900390625
1372.182232716852,20189.80078125
1375.6220132152666,20332.30078125
1379.0597224378162,20234.19921875
1382.4953619812586,20273
1385.9289334407422,20217.900390625
1389.3604384098362,20148.80078125
1392.7898784804984,20012.30078125
1396.2172552431111,19895.30078125
1399.6425702864526,20001.30078125
1403.065825197722,20066.599609375
1406.4870215625342,20131.5
1409.9061609649143,20099.69921875
1413.3232449873121,20024.80078125
1416.738275210595,19933.900390625
1420.1512532140478,19909.900390625
1423.562180575389,19700.5
1426.9710588707603,19675.5
1430.3778896747281,19710.599609375
1433.7826745602906,19741.599609375
1437.1854150988838,19630.69921875
1440.5861128603719,19766.5
1443.9847694130585,19554.400390625
1447.381386323681,19625.599609375
1450.7759651574252,19405.099609375
1454.1685074779107,19299.19921875
1457.5590148472093,19202.5
1460.94748882583,19218.900390625
1464.3339309727398,19221.30078125
1467.7183428453445,19224.30078125
1471.1007259995149,19154.80078125
1474.4810819895629,19250.69921875
1477.8594123682669,19066.19921875
1481.2357186868576,18946.400390625
1484.6100024950247,18819.19921875
1487.9822653409246,18809.80078125
1491.3525087711696,18821.30078125
1494.7207343308492,18833.19921875
1498.0869435635068,18876.400390625
1501.451138011169,18776.5
1504.8133192143196,18802.099609375
1508.1734887119273,18669.80078125
1511.5316480414313,18574.80078125
1514.8877987387477,18471.69921875
1518.2419423382707,18442.400390625
1521.5940803728809,18379.30078125
1524.9442143739343,18375.5
1528.2923458712758,18503.69921875
1531.6384763932383,18526.80078125
1534.982607466638,18428.099609375
1538.3247406167884,18317.69921875
1541.6648773674915,18119.80078125
1545.0030192410395,18023.5
1548.3391677582295,18064
1551.6733244383486,18015.19921875
1555.0054907991907,17993.599609375
1558.3356683570473,17969.19921875
1561.6638586267109,17987.400390625
1564.9900631214878,17920.80078125
1568.3142833531838,17885
1571.6365208321167,17842.80078125
1574.9567770671147,17658.099609375
1578.2750535655232,17642.900390625
1581.5913518331945,17552.099609375
1584.9056733745037,17510.80078125
1588.2180196923437,17335.5
1591.5283922881263,17458.099609375
1594.836792661783,17505.80078125
1598.1432223117754,17370.30078125
1601.4476827350863,17203.69921875
1604.7501754272307,17065.400390625
1608.0507018822464,16945.69921875
1611.3492635927068,16975
1614.6458620497178,17028.19921875
1617.9404987429225,16976.400390625
1621.2331751604979,16970
1624.5238927891587,17075.900390625
1627.8126531141661,16935.19921875
1631.0994576193152,16767.5
1634.3843077869533,16684.19921875
1637.6672050979651,16595.69921875
1640.9481510317928,16646.099609375
1644.22714706642,16637.19921875
1647.5041946783895,16613.30078125
1650.7792953427834,16634
1654.052450533256,16623.80078125
1657.3236617220064,16542.400390625
1660.5929303797966,16405.80078125
1663.86025797595,16268.2998046875
1667.1256459783472,16206
1670.3890958534394,16151.599609375
1673.6506090662351,16138.7998046875
1676.9101870803206,16087.099609375
1680.1678313578414,16114
1683.4235433595204,16104.400390625
1686.6773245446511,16029.2998046875
1689.9291763711026,15970
1693.1791002953178,15768.2001953125
1696.4270977723154,15786.599609375
1699.6731702557063,15600
1702.9173191976661,15572.2001953125
1706.1595460489661,15584.099609375
1709.3998522589591,15586.2998046875
1712.6382392755822,15535.099609375
1715.8747085453633,15592.2001953125
1719.1092615134185,15418.5
1722.3418996234595,15404.599609375
1725.5726243177887,15265.5
1728.8014370373076,15142.099609375
1732.0283392215097,15068.400390625
1735.25333230849,15073.400390625
1738.476417734948,15133.2001953125
1741.6975969361756,15117.7001953125
1744.9168713460822,15123.2001953125
1748.134242397171,15088.900390625
1751.3497115205628,14935.5
1754.5632801459797,14753.900390625
1757.7749497017576,14592
1760.9847216148464,14576
1764.19259731081,14580.599609375
1767.3985782138243,14687.7998046875
1770.6026657466919,14708.2998046875
1773.8048613308238,14667.2998046875
1777.0051663862614,14654.5
1780.2035823316673,14466.099609375
1783.4001105843254,14380.7998046875
1786.5947525601423,14206.400390625
1789.787509673668,14159.599609375
1792.9783833380643,14182.7001953125
1796.1673749651345,14240.400390625
1799.3544859653121,14170.2001953125
1802.5397177476643,14149.099609375
1805.7230717199,14113.7001953125
1808.9045492883579,14080.2998046875
1812.0841518580237,13952.2001953125
1815.2618808325169,13938.400390625
1818.437737614111,13750.2001953125
1821.6117236037135,13772.2998046875
1824.7838402008838,13730.900390625
1827.9540888038282,13690.5
1831.1224708094032,13723.2998046875
1834.2889876131121,13760.2001953125
1837.4536406091211,13726.900390625
1840.616431190243,13686.7998046875
1843.7773607479467,13574.7001953125
1846.9364306723619,13458.599609375
1850.093642352278,13369.099609375
1853.2489971751456,13205.7998046875
1856.4024965270764,13180.2001953125
1859.5541417928489,13219.099609375
1862.7039343559045,13199.400390625
1865.8518755983569,13204
1868.997966900979,13192.5
1872.1422096432307,13000.2998046875
1875.2846052032291,12913.2001953125
1878.4251549577784,12743.099609375
1881.5638602823492,12651.5
1884.7007225510933,12564.099609375
1887.8357431368404,12575.2998046875
1890.9689234111011,12554.900390625
1894.100264744071,12631
1897.2297685046233,12622.599609375
1900.3574360603252,12513.7001953125
1903.4832687774233,12395.900390625
1906.6072680208563,12270.900390625
1909.7294351542532,12193.2998046875
1912.849771539939,12086.599609375
1915.9682785389195,12093.7001953125
1919.0849575109078,11971.7998046875
1922.1998098143085,12103.7001953125
1925.3128368062262,12041.2998046875
1928.4240398424645,11975.2001953125
1931.5334202775266,11909
1934.6409794646243,11843
1937.7467187556649,11776.900390625
1940.8506395012719,11710.7998046875
1943.9527430507678,11644.7998046875
1947.0530307521858,11578.7001953125
1950.15150395228,11512.599609375
1953.2481639965008,11446.599609375
1956.3430122290229,11380.400390625
1959.436049992737,11314.2998046875
1962.5272786292426,11307.599609375
1965.6166994788673,11120.099609375
1968.7043138806566,11015.2998046875
1971.79012317237,10884.900390625
1974.8741286904951,10760.900390625
1977.9563317702523,10732.400390625
1981.0367337455755,10673.7998046875
1984.1153359491345,10658.400390625
1987.1921397123224,10699.599609375
1990.2671463652714,10658.7998046875
1993.340357236837,10398.400390625
1996.4117736546177,10300.7001953125
1999.4813969449388,10099.5
2002.5492284328684,9958.900390625
2005.6152694422144,9857.099609375
2008.6795212955185,9840.599609375
2011.7419853140655,9744.2001953125
2014.8026628178923,9652.5
2017.8615551257681,9496.2998046875
2020.9186635552142,9409
2023.9739894224986,9285.7001953125
2027.0275340426379,9107.2998046875
2030.0792987294008,8969.599609375
2033.1292847953118,8697.900390625
2036.1774935516405,8601
2039.2239263084175,8491.099609375
2042.2685843744239,8445.099609375
2045.3114690572129,8313
2048.352581663079,8299
2051.3919234970926,8168.10009765625
2054.42949586308,8037.10009765625
2057.4653000636281,7906.2001953125
2060.4993374001024,7775.2001953125
2063.5316091726163,7644.2998046875
2066.5621166800738,7540.10009765625
2069.5908612201329,7444.2001953125
2072.6178440892254,7454.2001953125
2075.643066582561,7400.7998046875
2078.6665299941214,7317.10009765625
2081.6882356166643,7280.5
2084.708184741723,7285.7001953125
2087.7263786596141,7152
2090.7428186594298,7062.89990234375
2093.7575060290492,6962.60009765625
2096.7704420551308,6902.7998046875
2099.7816280231164,6894.7001953125
2102.7910652172377,6909.89990234375
2105.7987549205118,6992.60009765625
2108.8046984147459,6899.2998046875
2111.8088969805394,6887.39990234375
2114.8113518972768,6892
2117.8120644431474,6844.2998046875
2120.8110358951235,6839.5
2123.8082675289825,6786.2001953125
2126.8037606192956,6745.60009765625
2129.7975164394284,6755.2998046875
2132.78953626156,6736.89990234375
2135.7798213566602,6784.10009765625
2138.7683729945056,6860.5
2141.7551924436775,6881
2144.7402809715659,6827
2147.7236398443674,6806.10009765625
2150.705270327082,6752.10009765625
2153.6851736835288,6758.39990234375
2156.6633511763357,6732.89990234375
2159.6398040669428,6689.2001953125
2162.614533615606,6813
2165.5875410813987,6811.2001953125
2168.5588277222087,6849.7001953125
2171.5283947947428,6854.2001953125
2174.4962435545331,6833.60009765625
2177.462375255931,6819.7998046875
2180.4267911521074,6838.2998046875
2183.3894924950637,6841.7998046875
2186.350480535626,6820.2998046875
2189.3097565234439,6857.2001953125
2192.2673217069987,6801.60009765625
2195.2231773336025,6864.89990234375
2198.1773246493995,6864.60009765625
2201.1297648993641,6959.2001953125
2204.0804993273086,6879.2001953125
2207.0295291758757,6889.60009765625
2209.9768556865529,6904.5
2212.92248009966,6884.5
2215.8664036543596,6848.60009765625
2218.8086275886544,6815.10009765625
2221.749153139388,6853.39990234375
2224.6879815422508,6892.89990234375
2227.6251140317818,6906.7001953125
2230.5605518413613,6942.7001953125
2233.4942962032164,6902.7998046875
2236.42634834843,6896.7998046875
2239.35670950693,6874.60009765625
2242.2853809075004,6824.89990234375
2245.2123637777768,6804.2998046875
2248.1376593442528,6732.7001953125
2251.061268832269,6756.5
2253.9831934660378,6817.60009765625
2256.9034344686206,6904.7001953125
2259.8219930619416,6932.2001953125
2262.7388704667846,6868.7998046875
2265.6540679028021,6849.39990234375
2268.5675865885059,6834.7998046875
2271.4794277412748,6755.5
2274.3895925773559,6710.10009765625
2277.2980823118633,6681.89990234375
2280.2048981587795,6691.10009765625
2283.1100413309614,6727.60009765625
2286.0135130401377,6720.10009765625
2288.9153144969059,6755.2998046875
2291.8154469107449,6731.10009765625
2294.7139114900092,6751.5
2297.6107094419276,6725.5
2300.5058419726065,6669.7001953125
2303.3993102870409,6654.89990234375
2306.2911155890979,6568.5
