Wavelength,Intensity
197.31843431919879,19277.599609375
201.48616933759149,19615.80078125
205.65124956070576,19743.19921875
209.81367719610535,19759.69921875
213.973454448942,19883.30078125
218.13058352196094,19761.900390625
222.28506661551182,19890.5
226.43690592754865,19937.80078125
230.58610365362256,19994.69921875
234.73266198690726,20131.69921875
238.87658311818086,20332
243.01786923583677,20586
247.15652252589825,20851.099609375
251.29254517199661,21086.19921875
255.4259393554039,21492.80078125
259.55670725501113,21664.69921875
263.68485104734827,21833.19921875
267.81037290657514,21998.5
271.93327500449595,22209.69921875
276.05355951055753,22275.5
280.17122859184747,22443.30078125
284.28628441310866,22625.400390625
288.39872913673025,22808.599609375
292.5085649227567,23035.5
296.61579392889325,23266.5
300.72041831051138,23496.19921875
304.82244022064151,23612.599609375
308.92186180998033,23839.900390625
313.01868522690165,23999.400390625
317.112912617451,24239.5
321.20454612534922,24232
325.29358789200342,24308.69921875
329.38004005650328,24371.19921875
333.46390475562112,24321.599609375
337.54518412381913,24268.19921875
341.62388029326576,24281.80078125
345.69999539381024,24364.400390625
349.77353155300989,24351.900390625
353.84449089612281,24296.599609375
357.91287554611517,24492.599609375
361.97868762365761,24512.099609375
366.04192924714152,24695.80078125
370.10260253266097,24699.19921875
374.16070959404351,24810.099609375
378.21625254282844,24996.5
382.26923348827768,25069.80078125
386.31965453739213,25116.80078125
390.36751779489532,25086.19921875
394.41282536324434,25134.900390625
398.45557934263707,25137.30078125
402.49578183101039,25057.5
406.53343492404383,25019.099609375
410.56854071516318,24879.099609375
414.60110129554414,24771
418.6311187541196,24695.400390625
422.65859517756326,24688.30078125
426.68353265032783,24580
430.7059332546105,24539.5
434.72579907038016,24427.900390625
438.74313217537747,24459.599609375
442.75793464510753,24499.599609375
446.77020855284718,24463.5
450.77995596965593,24436.900390625
454.78717896437229,24620.80078125
458.79187960361378,24682.099609375
462.79405995178786,24745.400390625
466.79372207108645,24809.599609375
470.7908680215005,24690.099609375
474.78549986080543,24780.099609375
478.77761964458659,24804.80078125
482.76722942621382,24847.099609375
486.7543312568796,24857.099609375
490.73892718556635,24842.30078125
494.72101925907918,24973.400390625
498.70060952202584,25031.599609375
502.67770001683493,24843.80078125
506.65229278375409,24966.099609375
510.62438986084817,24995
514.593993284012,25039.30078125
518.56110508696111,25071.30078125
522.52572730124666,25131.69921875
526.48786195624962,25090.69921875
530.44751107919183,25209.30078125
534.40467669512873,25172.599609375
538.35936082695844,25326.599609375
542.3115654954272,25386.099609375
546.2612927191276,25378.30078125
550.2085445144985,25272.900390625
554.15332289584148,25296.5
558.09562987530626,25413.599609375
562.03546746290522,25303.30078125
565.97283766651162,25342.19921875
569.90774249186506,25320.099609375
573.84018394257328,25093.30078125
577.770164020114,25027.80078125
581.69768472383657,25099.400390625
585.6227480509715,25361.30078125
589.54535599662449,25427.900390625
593.46551055378586,25232.30078125
597.38321371333222,25352
601.29846746401927,25187
605.2112737925072,25356.099609375
609.12163468334074,25317.30078125
613.02955211896187,25376.5
616.93502807971345,25334.80078125
620.83806454383739,25269.19921875
624.73866348748743,25346.30078125
628.63682688471636,25296.400390625
632.5325567074924,25268.099609375
636.42585492569742,25423.599609375
640.31672350712506,25196.5
644.20516441748987,25148.400390625
648.0911796204291,25126.599609375
651.97477107750819,25132.099609375
655.85594074821165,25055.099609375
659.73469058995579,25089.5
663.61102255809237,25065.5
667.48493860591043,25011.400390625
671.356440684629,24941.80078125
675.22553074342068,24976.5
679.09221072938635,25065.400390625
682.95648258758592,24888.30078125
686.818348261022,24906.19921875
690.67780969065279,25066.599609375
694.53486881538629,25107.5
698.389527572097,25009.30078125
702.24178789560574,25088
706.091651718707,25056.599609375
709.9391209721598,25135.400390625
713.7841975846859,25143.80078125
717.62688348298252,25185.900390625
721.46718059172053,25195.599609375
725.30509083354082,25170.80078125
729.14061612907062,25141.69921875
732.97375839691813,25174.400390625
736.80451955367425,25263.900390625
740.63290151391448,25119.599609375
744.45890619020793,25203.5
748.28253549311376,25150.400390625
752.10379133118659,25108.69921875
755.922675610982,25093.19921875
759.73919023705275,25110.30078125
763.5533371119509,25026.099609375
767.36511813623838,25011.69921875
771.17453520849085,24992
774.98159022528671,24917.5
778.78628508121619,24975.30078125
782.58862166889776,24772.19921875
786.38860187895989,24851
790.18622760004837,24840.400390625
793.981500718839,24772.5
797.7744231200395,24800.30078125
801.56499668637844,24736.19921875
805.35322329861992,24670.19921875
809.1391048355581,24752.30078125
812.92264317403351,24718.900390625
816.70384018891673,24604.19921875
820.48269775312474,24653.5
824.25921773762093,24577.80078125
828.03340201141873,24659.099609375
831.80525244156706,24585.19921875
835.57477089318672,24613.099609375
839.34195922943945,24474
843.106819311557,24562.599609375
846.86935299882134,24609.30078125
850.629562148577,24623.30078125
854.38744861624036,24634.900390625
858.14301425529266,24466.19921875
861.89626091728678,24595.69921875
865.64719045184938,24504.19921875
869.39580470668079,24378.599609375
873.142105527555,24547.599609375
876.886094758338,24550.69921875
880.62777424096748,24543.30078125
884.36714581547494,24518.30078125
888.10421131997828,24482.599609375
891.83897259068181,24452.80078125
895.57143146188719,24445.900390625
899.30158976598977,24396
903.0294493334859,24291.900390625
906.755011992971,24333.5
910.47827957114714,24257.69921875
914.19925389280979,24143.69921875
917.91793678088288,24146.5
921.63433005637853,24244.30078125
925.34843553844075,24193.599609375
929.06025504432,24031.099609375
932.76979038938225,23955.69921875
936.47704338712538,23881.599609375
940.182015849161,23880.80078125
943.884709585227,23879
947.58512640318986,23763.5
951.28326810904946,23728.30078125
954.97913650693954,23692.900390625
958.67273339911662,23668.80078125
962.36406058599277,23712.19921875
966.05311986611014,23839.19921875
969.73991303615367,23594.900390625
973.42444189095477,23612.400390625
977.1067082234913,23613.30078125
980.78671382489847,23625.900390625
984.46446048444886,23633
988.13994998958515,23643.19921875
991.8131841258928,23642.19921875
995.484164677131,23725.69921875
999.152893425211,23704.400390625
1002.8193721502121,23644.5
1006.4836026303801,23571.599609375
1010.1455866421293,23469.30078125
1013.8053259600438,23530
1017.4628223568834,23491.400390625
1021.1180776035853,23595
1024.7710934692641,23595.099609375
1028.4218717212134,23408.400390625
1032.0704141249189,23455
1035.7167224440345,23467.900390625
1039.3607984404189,23434.30078125
1043.0026438741188,23403.19921875
1046.6422605033622,23427.599609375
1050.2796500845852,23431.400390625
1053.9148143724142,23327
1057.5477551196764,23369.900390625
1061.1784740774019,23213.099609375
1064.8069729948293,23209.69921875
1068.4332536194015,23189.30078125
1072.0573176967609,23206.900390625
1075.6791669707764,23165.69921875
1079.298803183523,23099.900390625
1082.9162280752917,23162.80078125
1086.5314433845961,23048.900390625
1090.14445084816,23007.19921875
1093.7552522009446,22980.900390625
1097.3638491761285,22910.30078125
1100.9702435051149,22891.19921875
1104.5744369175445,22950.400390625
1108.1764311412844,22806.599609375
1111.776227902441,22835.099609375
1115.3738289253561,22845.099609375
1118.9692359326018,22803
1122.562450645004,22659.099609375
1126.1534747816295,22581.400390625
1129.7423100597825,22590.900390625
1133.3289581950285,22557.599609375
1136.91342090117,22559.599609375
1140.4956998902726,22539.69921875
1144.0757968726484,22493.30078125
1147.653713556876,22439.30078125
1151.2294516497841,22190
1154.8030128564715,22331.69921875
1158.3743988802926,22175.099609375
1161.9436114228756,22203.19921875
1165.5106521841099,22175.5
1169.075522862162,22165.30078125
1172.6382251534669,21994.400390625
1176.1987607527353,21926.599609375
1179.7571313529588,21956.69921875
1183.3133386453992,21996.599609375
1186.867384319612,21893.19921875
1190.4192700634321,21933.599609375
1193.9689975629735,22031.30078125
1197.5165685026495,21944.19921875
1201.0619845651563,21955.5
1204.6052474314856,21882.099609375
1208.1463587809212,21775.599609375
1211.6853202910515,21769.19921875
1215.222133637757,21615.30078125
1218.7568004952191,21624.19921875
1222.2893225359276,21665.400390625
1225.819701430677,21671.19921875
1229.3479388485648,21664.599609375
1232.8740364570076,21631
1236.3979959217268,21488.69921875
1239.9198189067611,21477.599609375
1243.4395070744649,21355.599609375
1246.9570620855138,21238.099609375
1250.4724855989007,21287.30078125
1253.9857792719413,21158.5
1257.4969447602834,21125.5
1261.005983717896,21041.5
1264.5128977970817,21066.400390625
1268.0176886484642,20997.599609375
1271.5203579210138,20837.80078125
1275.0209072620328,20680.19921875
1278.5193383171609,20706.19921875
1282.0156527303734,20585.30078125
1285.5098521439977,20699.099609375
1289.0019381986949,20682.19921875
1292.4919125334818,20698.599609375
1295.9797767857162,20573.30078125
1299.4655325911135,20390.80078125
1302.9491815837391,20343.099609375
1306.4307253960087,20143.099609375
1309.9101656587009,20220.599609375
1313.3875040009498,20179.900390625
1316.862742050258,20293.400390625
1320.3358814324838,20094.400390625
1323.8069237718519,20161.599609375
1327.2758706909553,20087.30078125
1330.7427238107575,19811.80078125
1334.2074847505937,19871.400390625
1337.6701551281694,19740.80078125
1341.1307365595731,19697.900390625
1344.5892306592632,19754.80078125
1348.0456390400832,19783.5
1351.4999633132538,19744.30078125
1354.9522050883861,19657.599609375
1358.4023659734739,19567.099609375
1361.8504475748941,19413.400390625
1365.2964514974228,19322.099609375
1368.7403793442209,19375.19921875
1372.182232716852,19399.900390625
1375.6220132152666,19459.19921875
1379.0597224378162,19384.69921875
1382.4953619812586,19464.69921875
1385.9289334407422,19401.19921875
1389.3604384098362,19331.30078125
1392.7898784804984,19264.400390625
1396.2172552431111,19131.19921875
1399.6425702864526,19220.30078125
1403.065825197722,19218.599609375
1406.4870215625342,19248.900390625
1409.9061609649143,19248.80078125
1413.3232449873121,19252.80078125
1416.738275210595,19145.099609375
1420.1512532140478,19111.80078125
1423.562180575389,18874.80078125
1426.9710588707603,18906.69921875
1430.3778896747281,18811.69921875
1433.7826745602906,18887.400390625
1437.1854150988838,18752.19921875
1440.5861128603719,18891
1443.9847694130585,18933.30078125
1447.381386323681,18751.099609375
1450.7759651574252,18603.400390625
1454.1685074779107,18427
1457.5590148472093,18394.099609375
1460.94748882583,18396.599609375
1464.3339309727398,18371
1467.7183428453445,18361.900390625
1471.1007259995149,18499.19921875
1474.4810819895629,18402.30078125
1477.8594123682669,18324.19921875
1481.2357186868576,18190.099609375
1484.6100024950247,18104.900390625
1487.9822653409246,17995.099609375
1491.3525087711696,18006.19921875
1494.7207343308492,17962.599609375
1498.0869435635068,18141.599609375
1501.451138011169,18011.099609375
1504.8133192143196,18028.80078125
1508.1734887119273,17921.900390625
1511.5316480414313,17816.400390625
1514.8877987387477,17697.900390625
1518.2419423382707,17652.30078125
1521.5940803728809,17671.19921875
1524.9442143739343,17679.30078125
1528.2923458712758,17650.30078125
1531.6384763932383,17614.30078125
1534.982607466638,17630.30078125
1538.3247406167884,17509.099609375
1541.6648773674915,17325.19921875
1545.0030192410395,17254.599609375
1548.3391677582295,17239
1551.6733244383486,17200.80078125
1555.0054907991907,17275.30078125
1558.3356683570473,17207.80078125
1561.6638586267109,17275.80078125
1564.9900631214878,17148.80078125
1568.3142833531838,17098.19921875
1571.6365208321167,17080.099609375
1574.9567770671147,16906.19921875
1578.2750535655232,16926.19921875
1581.5913518331945,16866.400390625
1584.9056733745037,16733.30078125
1588.2180196923437,16650.900390625
1591.5283922881263,16610.099609375
1594.836792661783,16708
1598.1432223117754,16643.19921875
1601.4476827350863,16456.30078125
1604.7501754272307,16349.2998046875
1608.0507018822464,16258.2998046875
1611.3492635927068,16238.099609375
1614.6458620497178,16299.7998046875
1617.9404987429225,16293.599609375
1621.2331751604979,16293.2001953125
1624.5238927891587,16299.099609375
1627.8126531141661,16148.599609375
1631.0994576193152,16086.099609375
1634.3843077869533,15911.2998046875
1637.6672050979651,15921.7998046875
1640.9481510317928,15986.2998046875
1644.22714706642,15936.5
1647.5041946783895,15919.7001953125
1650.7792953427834,15994.7998046875
1654.052450533256,15955.5
1657.3236617220064,15857.900390625
1660.5929303797966,15708.5
1663.86025797595,15666.5
1667.1256459783472,15526.2998046875
1670.3890958534394,15458.099609375
1673.6506090662351,15509.2001953125
1676.9101870803206,15425.7001953125
1680.1678313578414,15464.400390625
1683.4235433595204,15421.2998046875
1686.6773245446511,15338.099609375
1689.9291763711026,15198.7998046875
1693.1791002953178,15115.099609375
1696.4270977723154,14982.2998046875
1699.6731702557063,14917.400390625
1702.9173191976661,14859.7998046875
1706.1595460489661,14802.2998046875
1709.3998522589591,14915.7001953125
1712.6382392755822,14890.099609375
1715.8747085453633,14826
1719.1092615134185,14854.2998046875
1722.3418996234595,14668.900390625
1725.5726243177887,14559.900390625
1728.8014370373076,14433.2001953125
1732.0283392215097,14386.7001953125
1735.25333230849,14496.2998046875
1738.476417734948,14481.2001953125
1741.6975969361756,14436.7998046875
1744.9168713460822,14423.599609375
1748.134242397171,14444.7001953125
1751.3497115205628,14282.099609375
1754.5632801459797,14087.2998046875
1757.7749497017576,13980
1760.9847216148464,13951.5
1764.19259731081,13852.2998046875
1767.3985782138243,13967.400390625
1770.6026657466919,14015.2001953125
1773.8048613308238,14003.7998046875
1777.0051663862614,14023.900390625
1780.2035823316673,13830.2001953125
1783.4001105843254,13657.2001953125
1786.5947525601423,13555.2001953125
1789.787509673668,13624.2001953125
1792.9783833380643,13594.400390625
1796.1673749651345,13514.900390625
1799.3544859653121,13612.5
1802.5397177476643,13495.2998046875
1805.7230717199,13467.2001953125
1808.9045492883579,13441.7001953125
1812.0841518580237,13293.5
1815.2618808325169,13303.599609375
1818.437737614111,13194.5
1821.6117236037135,13143.2998046875
1824.7838402008838,13160.099609375
1827.9540888038282,13132.7001953125
1831.1224708094032,13149.7998046875
1834.2889876131121,13179.599609375
1837.4536406091211,13171.2998046875
1840.616431190243,13055.7998046875
1843.7773607479467,12982.599609375
1846.9364306723619,12909.099609375
1850.093642352278,12678.099609375
1853.2489971751456,12733.7001953125
1856.4024965270764,12647.400390625
1859.5541417928489,12622.5
1862.7039343559045,12660.7998046875
1865.8518755983569,12656.400390625
1868.997966900979,12583.5
1872.1422096432307,12474.7998046875
1875.2846052032291,12326.2998046875
1878.4251549577784,12224.2998046875
1881.5638602823492,12140.599609375
1884.7007225510933,11967.7001953125
1887.8357431368404,12048.099609375
1890.9689234111011,11975
1894.100264744071,12101.2001953125
1897.2297685046233,12025.5
1900.3574360603252,12019.099609375
1903.4832687774233,11910
1906.6072680208563,11775.599609375
1909.7294351542532,11561.900390625
1912.849771539939,11514.7998046875
1915.9682785389195,11535.5
1919.0849575109078,11515.900390625
1922.1998098143085,11530.2001953125
1925.3128368062262,11498
1928.4240398424645,11435
1931.5334202775266,11371.7001953125
1934.6409794646243,11308.7998046875
1937.7467187556649,11245.7001953125
1940.8506395012719,11182.599609375
1943.9527430507678,11119.400390625
1947.0530307521858,11056.2998046875
1950.15150395228,10993.2001953125
1953.2481639965008,10930.2998046875
1956.3430122290229,10867
1959.436049992737,10804
1962.5272786292426,10801.7001953125
1965.6166994788673,10586.099609375
1968.7043138806566,10458.2998046875
1971.79012317237,10382
1974.8741286904951,10217.400390625
1977.9563317702523,10219
1981.0367337455755,10080.2001953125
1984.1153359491345,10150.7998046875
1987.1921397123224,10159.2998046875
1990.2671463652714,10054.5
1993.340357236837,9907.400390625
1996.4117736546177,9738.900390625
1999.4813969449388,9553.599609375
2002.5492284328684,9382.099609375
2005.6152694422144,9338.5
2008.6795212955185,9323.7998046875
2011.7419853140655,9249.5
2014.8026628178923,9086.2998046875
2017.8615551257681,9047.400390625
2020.9186635552142,8936
2023.9739894224986,8862.900390625
2027.0275340426379,8651.400390625
2030.0792987294008,8464.5
2033.1292847953118,8282.7001953125
2036.1774935516405,8153.39990234375
2039.2239263084175,8100.39990234375
2042.2685843744239,7995.7998046875
2045.3114690572129,7921.7001953125
2048.352581663079,7896.7001953125
2051.3919234970926,7786
2054.42949586308,7675.39990234375
2057.4653000636281,7564.60009765625
2060.4993374001024,7454
2063.5316091726163,7343.2998046875
2066.5621166800738,7179.7001953125
2069.5908612201329,7104.2001953125
2072.6178440892254,7102
2075.643066582561,7014.5
2078.6665299941214,7003.89990234375
2081.6882356166643,6946.60009765625
2084.708184741723,6920.39990234375
2087.7263786596141,6816
2090.7428186594298,6748.7998046875
2093.7575060290492,6703.5
2096.7704420551308,6600.7998046875
2099.7816280231164,6590.60009765625
2102.7910652172377,6615.89990234375
2105.7987549205118,6670.5
2108.8046984147459,6623.89990234375
2111.8088969805394,6555.10009765625
2114.8113518972768,6555.7998046875
2117.8120644431474,6562.89990234375
2120.8110358951235,6535.7001953125
2123.8082675289825,6493.10009765625
2126.8037606192956,6402.10009765625
2129.7975164394284,6392.2001953125
2132.78953626156,6394.7998046875
2135.7798213566602,6467.7998046875
2138.7683729945056,6522.89990234375
2141.7551924436775,6526
2144.7402809715659,6515.5
2147.7236398443674,6529.7001953125
2150.705270327082,6432.5
2153.6851736835288,6454.2998046875
2156.6633511763357,6427.60009765625
2159.6398040669428,6441.5
2162.614533615606,6471.2998046875
2165.5875410813987,6554
2168.5588277222087,6636
2171.5283947947428,6486.39990234375
2174.4962435545331,6463.10009765625
2177.462375255931,6478
2180.4267911521074,6488.2998046875
2183.3894924950637,6557.5
2186.350480535626,6506.10009765625
2189.3097565234439,6557.60009765625
2192.2673217069987,6532.39990234375
2195.2231773336025,6545.60009765625
2198.1773246493995,6555.7998046875
2201.1297648993641,6580.5
2204.0804993273086,6571.7001953125
2207.0295291758757,6600.89990234375
2209.9768556865529,6576.2998046875
2212.92248009966,6581.60009765625
2215.8664036543596,6504
2218.8086275886544,6493.60009765625
2221.749153139388,6557.7001953125
2224.6879815422508,6535.60009765625
2227.6251140317818,6530.2001953125
2230.5605518413613,6644.60009765625
2233.4942962032164,6591.2998046875
2236.42634834843,6629.39990234375
2239.35670950693,6544.39990234375
2242.2853809075004,6609.89990234375
2245.2123637777768,6510
2248.1376593442528,6408.7998046875
2251.061268832269,6460.2001953125
2253.9831934660378,6543.2001953125
2256.9034344686206,6610.2001953125
2259.8219930619416,6630.2001953125
2262.7388704667846,6595.2001953125
2265.6540679028021,6478.10009765625
2268.5675865885059,6550.60009765625
2271.4794277412748,6493.7001953125
2274.3895925773559,6379
2277.2980823118633,6385.60009765625
2280.2048981587795,6349.5
2283.1100413309614,6418.7001953125
2286.0135130401377,6422.60009765625
2288.9153144969059,6467.7001953125
2291.8154469107449,6434
2294.7139114900092,6434.7998046875
2297.6107094419276,6449.39990234375
